time (s)	magX	magY	magZ
1900.052689	127.988899	529.133850	-268.990051
1900.056026	130.443588	536.088867	-278.925781
1900.059361	130.735825	543.336060	-289.329041
1900.062691	132.313843	550.758606	-300.024536
1900.066024	134.008759	557.479797	-310.836914
1900.069351	135.586777	564.610168	-322.350647
1900.072683	138.625946	571.915833	-334.974854
1900.076023	140.788422	578.578613	-346.722412
1900.079357	142.191116	585.825806	-359.697266
1900.082692	143.769150	592.956177	-371.912354
1900.086020	145.990051	599.385132	-386.056091
1900.089348	148.327866	606.749268	-398.504944
1900.092682	151.016357	613.178223	-414.051453
1900.096020	152.828156	620.542358	-429.364075
1900.099349	154.639984	625.860901	-444.267700
1900.102690	156.802444	632.582092	-460.924622
1900.106023	158.964920	637.900635	-477.406189
1900.109351	161.010513	643.511353	-495.933411
1900.112681	162.646973	649.239014	-515.045044
1900.116041	164.400345	655.142029	-532.695496
1900.119387	165.803040	659.992981	-551.924011
1900.122685	166.855057	664.434814	-573.139648
1900.126020	168.199295	668.292236	-593.478638
1900.129347	169.134415	671.682007	-615.454102
1900.132681	169.485092	675.773254	-637.254211
1900.136012	169.660431	679.104614	-658.879028
1900.139350	169.835770	681.033325	-683.426086
1900.142677	169.251297	682.611328	-707.096436
1900.146015	168.666855	682.728210	-731.585022
1900.149354	167.497955	683.429565	-755.372253
1900.152675	165.627701	683.195801	-780.737549
1900.156016	163.523666	681.383972	-806.453552
1900.159343	161.536514	679.981262	-833.046143
1900.162701	159.374039	677.175903	-860.164795
1900.166015	156.393326	673.201599	-886.406799
1900.169351	153.763290	667.473999	-914.635803
1900.172681	151.250137	662.155457	-940.702515
1900.176006	147.334305	655.083557	-969.048462
1900.179347	143.944473	647.602539	-997.803589
1900.182680	139.970200	638.835754	-1026.266479
1900.186015	135.879013	629.601379	-1053.618896
1900.189403	132.196960	617.327881	-1081.731201
1900.192701	128.982468	605.404968	-1109.960327
1900.196007	124.599068	591.378113	-1139.825806
1900.199344	121.267677	577.059021	-1166.886108
1900.202674	117.585625	562.564575	-1195.816528
1900.206020	113.202225	544.797180	-1224.396240
1900.209345	109.578613	526.737549	-1253.034546
1900.212672	105.896553	508.444183	-1280.796143
1900.216009	102.097610	487.754547	-1308.791382
1900.219341	97.597313	464.960846	-1334.858032
1900.222671	93.155472	441.699615	-1363.788452
1900.226006	88.947395	417.561646	-1390.614990
1900.229339	84.739334	392.313293	-1417.265991
1900.232675	80.355927	367.064880	-1441.988281
1900.236020	75.680305	339.244873	-1468.931641
1900.239332	70.537117	311.249573	-1493.829346
1900.242671	64.575684	281.500885	-1518.610229
1900.246010	58.906487	251.167740	-1540.819458
1900.249336	52.711281	220.776154	-1562.093628
1900.252666	46.399181	188.514313	-1582.900146
1900.256000	39.385742	156.018707	-1602.420898
1900.259347	31.846289	122.704857	-1622.759766
1900.262674	23.547049	89.215668	-1638.773804
1900.266036	14.078901	55.258915	-1653.209839
1900.269334	4.552309	21.769726	-1667.762695
1900.272668	-4.915838	-12.713034	-1679.101074
1900.275996	-14.676214	-48.014027	-1688.218628
1900.279363	-24.202806	-81.561661	-1696.517944
1900.282671	-34.956749	-115.810631	-1702.128540
1900.285996	-45.710693	-149.475159	-1705.693726
1900.289331	-55.704849	-182.905899	-1707.271851
1900.292679	-66.517235	-214.115738	-1707.096436
1900.296004	-77.563408	-245.734665	-1705.985962
1900.299338	-87.674461	-276.009338	-1697.920532
1900.302659	-97.960838	-306.459351	-1692.894287
1900.305993	-107.721207	-335.623596	-1684.010620
1900.309332	-117.130913	-363.735809	-1673.665771
1900.312663	-126.423729	-390.854462	-1659.989502
1900.315996	-134.956757	-415.401489	-1646.313232
1900.319328	-142.963776	-440.240784	-1628.662842
1900.322668	-150.795441	-462.274689	-1610.720093
1900.325999	-157.224442	-485.711273	-1590.498047
1900.329326	-163.594986	-506.342499	-1570.392822
1900.332696	-169.731735	-525.161926	-1547.715942
1900.336027	-173.413803	-544.624207	-1524.045654
1900.339332	-178.615433	-561.398010	-1501.076660
1900.342678	-182.063705	-577.178284	-1474.074829
1900.345986	-185.453552	-592.198730	-1447.599121
1900.349322	-187.908234	-605.641174	-1419.077759
1900.352663	-189.778488	-616.921082	-1391.374756
1900.355998	-191.356506	-629.019348	-1363.028687
1900.359328	-192.583862	-638.604370	-1332.520264
1900.362659	-193.168320	-649.358276	-1302.596191
1900.365991	-192.700760	-657.365295	-1272.087769
1900.369318	-193.460556	-664.612549	-1241.637695
1900.373993	-191.707199	-676.184692	-1179.744141
1900.377385	-192.700760	-680.100525	-1148.300537
1900.380681	-191.648743	-683.782593	-1114.811279
1900.383988	-190.655182	-684.893066	-1082.490967
1900.387314	-190.129181	-688.282898	-1051.631836
1900.390622	-189.720047	-688.516663	-1019.603699
1900.393999	-188.668030	-689.101135	-988.569214
1900.396904	-187.732910	-687.990662	-958.878967
1900.400253	-187.148453	-687.172424	-927.143188
1900.403599	-186.914673	-684.951477	-895.991760
1900.406838	-185.570419	-681.620117	-866.476868
1900.410200	-185.102859	-679.691406	-836.202209
1900.413502	-184.284637	-676.301575	-808.265320
1900.416853	-183.641739	-672.794861	-778.516663
1900.420184	-182.414383	-666.891907	-750.579773
1900.423571	-182.122147	-661.865601	-725.682068
1900.426899	-181.420807	-657.131531	-699.790771
1900.430212	-180.719467	-651.696106	-674.308594
1900.433502	-179.667450	-644.448853	-649.060181
1900.436834	-178.498550	-638.019897	-626.675659
1900.440185	-177.621857	-632.175354	-601.894775
1900.443531	-175.634720	-625.746338	508.683838
1900.446928	-207.078339	-584.776184	1797.637573
1900.450195	-201.175354	-605.816528	-533.396851
1900.453592	-172.011108	-604.063110	-516.506165
1900.456860	-170.082413	-596.640625	-496.985413
1900.460162	-168.036819	-588.984253	-478.166016
1900.463507	-166.049683	-582.263000	-459.580383
1900.466841	-163.594986	-574.139099	-443.624756
1900.470174	-160.964935	-567.476318	-427.318542
1900.473545	-159.036240	-559.936890	-411.947388
1900.476938	-156.873764	-553.274109	-396.517822
1900.480229	-154.126831	-546.085388	-382.841614
1900.483121	-151.204575	-539.013428	-367.645813
1900.486833	-148.632980	-532.058472	-355.489197
1900.490160	-146.412048	-525.395691	-343.332520
1900.493485	-143.314438	-518.849792	-330.883667
1900.496410	-140.567505	-512.128601	-318.960815
1900.499768	-138.054367	-505.173553	-308.031555
1900.503088	-134.898315	-498.510803	-296.693176
1900.506426	-132.735825	-492.374023	-286.757446
1900.509758	-130.164230	-486.412598	-276.120422
1900.513128	-127.534187	-478.697815	-266.944458
1900.516438	-124.962593	-471.216797	-258.002350
1900.519738	-123.092339	-464.787842	-248.125076
1900.523077	-120.520744	-458.592621	-239.825836
1900.526403	-118.358269	-452.280548	-231.059021
1900.529774	-116.312675	-446.085327	-222.467560
1900.533069	-114.033318	-440.532990	-214.869659
1900.536395	-112.513725	-433.578003	-207.213333
1900.539753	-110.877266	-428.317963	-199.615433
1900.543110	-109.416122	-422.473419	-192.718887
1900.546418	-107.896553	-416.219727	-185.354767
1900.549735	-106.669197	-409.790741	-178.516663
1900.553068	-104.798950	-404.121582	-172.146118
1900.556395	-103.513145	-398.627686	-165.132675
1900.559729	-101.701340	-393.192261	-160.281708
1900.563062	-100.590881	-388.224426	-153.618942
1900.566412	-99.363525	-382.789001	-148.125076
1900.569724	-98.369957	-377.587372	-142.514313
1900.573076	-97.084160	-372.619507	-136.845123
1900.576407	-96.675034	-367.359436	-131.994171
1900.579739	-95.798363	-363.092926	-127.376968
1900.582646	-94.980133	-358.417297	-123.168907
1900.585999	-93.752777	-353.215637	-118.668610
1900.589300	-92.759201	-348.598450	-114.811218
1900.592636	-91.356514	-344.039734	-110.310928
1900.595968	-90.070709	-340.123901	-106.979546
1900.599301	-89.486267	-336.091156	-104.466393
1900.602635	-88.492691	-332.467560	-100.725891
1900.605970	-88.200462	-328.727051	-97.277611
1900.609301	-86.797775	-325.278748	-94.121567
1900.612630	-86.154877	-322.707184	-91.608414
1900.615971	-85.278198	-318.557556	-88.978378
1900.619296	-84.284630	-314.466370	-86.757454
1900.622632	-82.823486	-312.946808	-84.361191
1900.625967	-81.946815	-309.381622	-81.614258
1900.629298	-80.719460	-306.342499	-78.925774
1900.632627	-79.784332	-303.537109	-76.529518
1900.635964	-78.264755	-301.082397	-74.542374
1900.639298	-77.154297	-298.627686	-73.198135
1900.642632	-76.862068	-295.939209	-71.269432
1900.646021	-75.225594	-293.075378	-69.399185
1900.649305	-74.524254	-290.503784	-66.827591
1900.652629	-73.296898	-288.224426	-66.593803
1900.655967	-72.537109	-286.412628	-65.132675
1900.659295	-71.543541	-283.957916	-62.970192
1900.662634	-70.491524	-281.620087	-61.509060
1900.665961	-70.082405	-278.931610	-60.515488
1900.669295	-69.381065	-276.769135	-58.937462
1900.672653	-68.329048	-275.015778	-57.476330
1900.675963	-67.744591	-273.320831	-55.722969
1900.679297	-67.393921	-271.684387	-54.963181
1900.682624	-66.575684	-269.171234	-53.326710
1900.685962	-66.283455	-267.242523	-52.391586
1900.689289	-65.874344	-265.021606	-50.579777
1900.692626	-65.523674	-263.268250	-49.293980
1900.695962	-65.231438	-261.573334	-47.657509
1900.699294	-65.114548	-260.287537	-47.014610
1900.702631	-64.354767	-258.709503	-45.261253
1900.705953	-64.413208	-257.306824	-44.735245
1900.709297	-64.471657	-255.845718	-43.683228
1900.712623	-64.237877	-254.559921	-42.748100
1900.715968	-64.237877	-252.280533	-41.637638
1900.719288	-64.588547	-251.170074	-41.228523
1900.722628	-63.711861	-250.118057	-40.176506
1900.725956	-63.711861	-248.715378	-40.293396
1900.729284	-63.653412	-248.072479	-39.124489
1900.732624	-63.711861	-247.429581	-38.773815
1900.735960	-63.478081	-246.026886	-38.247810
1900.739290	-63.361191	-245.500900	-37.604912
1900.742619	-63.244301	-244.507309	-36.962013
1900.745953	-63.302742	-244.624207	-36.786674
1900.749288	-63.711861	-243.981308	-37.078903
1900.752618	-62.601395	-243.455292	-36.962013
1900.755953	-62.718292	-243.104614	-36.260666
1900.759290	-62.367615	-242.987717	-36.085331
1900.762616	-62.484505	-243.046188	-35.793106
1900.765954	-62.250725	-242.929291	-37.429573
1900.769283	-61.783165	-242.578613	-36.845119
1900.772616	-62.075394	-242.461716	-36.611340
1900.775948	-61.374046	-242.111053	-36.436005
1900.779290	-61.490936	-243.513748	-37.078903
1900.782616	-61.607834	-242.344833	-37.546463
1900.785948	-61.432487	-242.870850	-37.312683
1900.789316	-60.614258	-242.344833	-37.371128
1900.792613	-60.029800	-243.163055	-38.014027
1900.795954	-59.153130	-243.455292	-37.488018
1900.799282	-59.854469	-243.747513	-37.371128
1900.802620	-59.854469	-243.864410	-39.066040
1900.805951	-59.796021	-244.098175	-38.656925
1900.809281	-59.386909	-245.325531	-39.066040
1900.812617	-59.737579	-245.442429	-38.540035
1900.815948	-59.854469	-246.202225	-38.949150
1900.819278	-60.029800	-246.377563	-39.358269
1900.822617	-60.322029	-246.903580	-40.118061
1900.825946	-60.205139	-246.962021	-40.234951
1900.829278	-60.906487	-248.189377	-40.644066
1900.832635	-61.315598	-248.656937	-40.702515
1900.835950	-61.549385	-249.416733	-40.760960
1900.839277	-61.490936	-250.527191	-41.462303
1900.842613	-62.133835	-250.527191	-42.046757
1900.845945	-62.893631	-252.163651	-42.923439
1900.849277	-63.068962	-253.098770	-43.274109
1900.852617	-63.478081	-253.332565	-43.858562
1900.855940	-64.062538	-254.910583	-44.033897
1900.859278	-64.471657	-255.670364	-45.845703
1900.862637	-65.348335	-257.306824	-45.319695
1900.865942	-65.465225	-258.767975	-46.021042
1900.869274	-66.400345	-260.170654	-47.540619
1900.872608	-67.919930	-261.573334	-47.774399
1900.875956	-67.452362	-263.034454	-49.878433
1900.879273	-68.095268	-265.196960	-50.579777
1900.882609	-68.738159	-266.599640	-52.040913
1900.885944	-69.088837	-268.762115	-53.092930
1900.889274	-69.965515	-269.872559	-54.963181
1900.892600	-70.023956	-272.327271	-56.190533
1900.895933	-70.608414	-274.489777	-57.768555
1900.899273	-71.192863	-277.061340	-58.528343
1900.902603	-71.601982	-279.516052	-61.275280
1900.905975	-72.537109	-281.912323	-63.087086
1900.909274	-71.952660	-284.133240	-65.074226
1900.912603	-72.887779	-286.880188	-66.769135
1900.915931	-73.355347	-289.393341	-67.996490
1900.919291	-73.063118	-292.023376	-70.743423
1900.922598	-73.822906	-294.653412	-72.672119
1900.925938	-74.290474	-298.160126	-75.243721
1900.929265	-75.342484	-301.900635	-77.639977
1900.932604	-75.693161	-304.063110	-80.503799
1900.935932	-76.336060	-306.693146	-82.607834
1900.939270	-77.388077	-309.673859	-85.471657
1900.942597	-77.388077	-313.765015	-87.751022
1900.945932	-77.797188	-317.037964	-90.614845
1900.949285	-78.849205	-320.135559	-92.368202
1900.952601	-78.849205	-323.350067	-95.816483
1900.955928	-80.368782	-326.973694	-98.914085
1900.959302	-81.245468	-330.129730	-102.187027
1900.962602	-81.596138	-334.337799	-104.641731
1900.965935	-82.823486	-337.786072	-107.622444
1900.969266	-84.109291	-341.818817	-110.953827
1900.972598	-86.037994	-345.442413	-114.577438
1900.975933	-86.680885	-349.884277	-119.019287
1900.979264	-87.966682	-353.975433	-121.649330
1900.982598	-89.194031	-358.183502	-126.617180
1900.985927	-90.479836	-362.566895	-131.000580
1900.989260	-91.531845	-366.774963	-134.507309
1900.992604	-93.518997	-371.450592	-139.708954
1900.995929	-95.681473	-376.535339	-143.975464
1900.999261	-97.610161	-380.860321	-149.586212
1901.002590	-98.779068	-385.360596	-155.255417
1901.005928	-101.233780	-390.036224	-160.515488
1901.009259	-102.168907	-395.646973	-166.126251
1901.012590	-104.740501	-400.731720	-171.152542
1901.015933	-105.909409	-406.459351	-177.815308
1901.019263	-107.779655	-411.310333	-184.419647
1901.022601	-109.123894	-417.505524	-190.556396
1901.025929	-111.520164	-423.700745	-198.504974
1901.029294	-113.390404	-429.603760	-206.570435
1901.032594	-114.851540	-435.389832	-213.525421
1901.035930	-116.312675	-441.292786	-222.116898
1901.039253	-117.247810	-447.371124	-230.883682
1901.042591	-119.351845	-454.501465	-240.118073
1901.045922	-120.579201	-461.105743	-249.177094
1901.049256	-121.572762	-467.534760	-258.294556
1901.052588	-122.975456	-474.255981	-268.464050
1901.055928	-124.319695	-483.081238	-279.451782
1901.059263	-125.839272	-489.510223	-290.848633
1901.062591	-127.183525	-496.932770	-301.544128
1901.065923	-128.819992	-504.063110	-312.999390
1901.069257	-129.696671	-511.310333	-325.389832
1901.072612	-131.683823	-518.206970	-338.072449
1901.077278	-135.541214	-533.870300	-365.074219
1901.080579	-136.008774	-540.299255	-379.159546
1901.083931	-137.762131	-547.897156	-394.355347
1901.087248	-139.106369	-556.021057	-410.018677
1901.090646	-140.567505	-562.508484	-425.097595
1901.093950	-142.028641	-568.879028	-441.520752
1901.096871	-144.308014	-576.360046	-457.651672
1901.100177	-146.061386	-584.191711	-475.477478
1901.103862	-147.990067	-591.146729	-494.004700
1901.106774	-150.210999	-598.861511	-513.876099
1901.110112	-152.431915	-605.348938	-532.461731
1901.113461	-155.061951	-612.245483	-551.865540
1901.116835	-157.633545	-619.083618	-572.087646
1901.120183	-160.205139	-626.623047	-593.244873
1901.123520	-163.361191	-632.175354	-614.928101
1901.126775	-165.465225	-638.136780	-637.604858
1901.130097	-167.569260	-644.507324	-661.333679
1901.133432	-170.783752	-649.475220	-685.413208
1901.136792	-173.063126	-654.559937	-710.603149
1901.140144	-175.284042	-660.930481	-735.208618
1901.143506	-177.914093	-665.839844	-759.814148
1901.146852	-180.251907	-670.515503	-786.991211
1901.150164	-181.713043	-674.957336	-815.921692
1901.153458	-183.583298	-677.996521	-841.403870
1901.156765	-185.219757	-681.970825	-872.613708
1901.160141	-186.330215	-684.425476	-901.719482
1901.163449	-187.499130	-686.529541	-932.344788
1901.166792	-187.674469	-687.873779	-962.970154
1901.170174	-187.323807	-688.282898	-993.478638
1901.173526	-187.557571	-689.860901	-1025.272949
1901.176839	-187.206909	-689.042664	-1058.820557
1901.180090	-186.037994	-687.640015	-1091.783813
1901.183445	-185.044418	-685.769775	-1124.863892
1901.186779	-183.057281	-682.905945	-1158.236206
1901.190129	-180.193451	-678.756287	-1189.971924
1901.193021	-177.738754	-675.074280	-1223.285767
1901.196355	-174.407364	-669.872620	-1255.606079
1901.199698	-171.192886	-661.924011	-1289.212158
1901.203074	-166.809464	-654.910645	-1320.363525
1901.206336	-162.952087	-646.085388	-1352.976074
1901.209684	-158.218002	-635.156067	-1383.601440
1901.213007	-153.951492	-624.168335	-1413.583862
1901.216333	-148.925186	-611.836365	-1442.572876
1901.219666	-144.074234	-598.393921	-1469.925293
1901.222999	-137.469910	-583.431946	-1497.979004
1901.226326	-132.618942	-567.534790	-1523.461182
1901.229685	-126.423729	-550.234924	-1547.657593
1901.233033	-121.748100	-532.058472	-1570.743530
1901.236354	-115.026878	-511.836334	-1593.595581
1901.239683	-109.474571	-491.438904	-1612.999512
1901.242997	-103.980705	-468.528351	-1629.948608
1901.246362	-96.791931	-445.442413	-1648.066650
1901.249659	-91.648743	-420.720032	-1661.742920
1901.253000	-85.921097	-395.997650	-1675.886719
1901.256339	-79.784332	-370.164795	-1687.809448
1901.259662	-74.348923	-342.227905	-1695.641235
1901.262991	-67.919930	-314.583282	-1701.602661
1901.266349	-62.484505	-285.126801	-1704.992432
1901.269696	-55.821739	-254.852142	-1711.304565
1901.273015	-49.392754	-224.986572	-1711.830444
1901.276323	-42.788429	-193.250732	-1709.434204
1901.279656	-36.008766	-161.573349	-1706.395142
1901.283003	-29.696669	-129.019287	-1699.907593
1901.286329	-22.040327	-95.705429	-1695.641235
1901.289270	-14.208649	-62.450031	-1687.108154
1901.292564	-6.435417	-28.551723	-1676.997192
1901.295901	1.104033	5.463471	-1662.794800
1901.299229	9.052601	39.127995	-1649.527832
1901.302562	19.163647	73.201637	-1635.150269
1901.305895	27.521332	106.281708	-1616.915283
1901.309231	36.814144	139.712448	-1598.680298
1901.312565	46.223846	171.857391	-1579.334961
1901.315896	54.815315	203.768539	-1559.171387
1901.319234	63.757454	235.329041	-1536.845093
1901.322560	73.342491	265.311523	-1513.291626
1901.325896	82.401520	294.709534	-1485.822388
1901.329242	90.992989	324.107544	-1463.145630
1901.332605	99.818237	351.284637	-1436.494507
1901.335895	108.818825	378.987732	-1409.668091
1901.339245	116.708939	404.411469	-1382.724854
1901.342560	124.365280	429.075409	-1353.443726
1901.345896	131.787842	452.570465	-1323.519653
1901.349228	138.625946	473.961426	-1294.472290
1901.352563	145.113388	496.696686	-1264.898926
1901.355894	151.308594	516.801880	-1237.078857
1901.359224	156.627106	534.452332	-1206.687378
1901.362555	161.711853	551.869080	-1178.166016
1901.365892	165.510803	568.876648	-1147.949707
1901.369221	169.426651	583.429565	-1119.077759
1901.372563	173.050247	596.696655	-1088.686279
1901.375909	175.037399	609.963745	-1061.275391
1901.379224	177.258316	620.834595	-1032.169556
1901.382566	178.018112	631.237854	-1003.005188
1901.385895	179.479248	640.705994	-975.243713
1901.389223	179.829910	648.245483	-948.475708
1901.392555	180.472824	656.720032	-920.538879
1901.395907	180.940384	661.570984	-893.829346
1901.399239	180.005264	668.233765	-866.710632
1901.402552	179.420792	672.734070	-841.754517
1901.405894	178.544128	676.065430	-815.746338
1901.409225	177.901230	678.929260	-790.264160
1901.412553	177.199875	680.098206	-764.723511
1901.415891	176.147858	682.026855	-741.462280
1901.419220	175.212738	681.851501	-719.136169
1901.422558	173.868500	681.091736	-696.342468
1901.425904	172.699585	680.624207	-673.315002
1901.429217	172.056686	677.760376	-650.404419
1901.432548	170.595551	675.773254	-629.013428
