time (s)	det(V)
1138.148858	-0.018032	
1138.150418	-0.019341	
1138.152135	-0.021239	
1138.153638	-0.023075	
1138.155392	-0.025263	
1138.156876	-0.027305	
1138.158628	-0.029722	
1138.160119	-0.032361	
1138.161875	-0.034182	
1138.163365	-0.036736	
1138.165150	-0.039447	
1138.166634	-0.041537	
1138.168386	-0.044293	
1138.169883	-0.047664	
1138.171639	-0.050682	
1138.173166	-0.053977	
1138.174893	-0.057445	
1138.176420	-0.061663	
1138.178139	-0.065127	
1138.179690	-0.069554	
1138.181372	-0.072958	
1138.182930	-0.077144	
1138.184616	-0.081321	
1138.186174	-0.085869	
1138.187854	-0.090916	
1138.189436	-0.096073	
1138.191090	-0.101990	
1138.192699	-0.107698	
1138.194354	-0.113120	
1138.195944	-0.119187	
1138.197582	-0.124589	
1138.199207	-0.130958	
1138.200836	-0.137564	
1138.202516	-0.145109	
1138.204111	-0.151816	
1138.205777	-0.159567	
1138.207353	-0.167217	
1138.209044	-0.175773	
1138.210629	-0.183564	
1138.212286	-0.192760	
1138.213837	-0.200716	
1138.215569	-0.210928	
1138.217114	-0.219734	
1138.218832	-0.229901	
1138.220373	-0.239505	
1138.222106	-0.250893	
1138.223613	-0.260976	
1138.225346	-0.273246	
1138.226842	-0.284078	
1138.228627	-0.296635	
1138.230115	-0.308317	
1138.231888	-0.321586	
1138.233371	-0.332926	
1138.235159	-0.347275	
1138.236640	-0.360476	
1138.238393	-0.374812	
1138.239888	-0.388432	
1138.241614	-0.403921	
1138.243135	-0.413625	
1138.244890	-0.427265	
1138.246408	-0.441755	
1138.248139	-0.458070	
1138.249669	-0.473236	
1138.251380	-0.489829	
1138.252929	-0.505567	
1138.254635	-0.523175	
1138.256203	-0.539301	
1138.257872	-0.556767	
1138.259457	-0.573807	
1138.261125	-0.590368	
1138.262719	-0.607685	
1138.264375	-0.624189	
1138.265977	-0.641358	
1138.267597	-0.657173	
1138.269226	-0.674269	
1138.270840	-0.690375	
1138.272512	-0.707568	
1138.274115	-0.722775	
1138.275742	-0.738751	
1138.277344	-0.753382	
1138.279034	-0.768995	
1138.280599	-0.781592	
1138.282297	-0.796054	
1138.283850	-0.807256	
1138.285567	-0.820780	
1138.287127	-0.831608	
1138.288825	-0.843282	
1138.290377	-0.852164	
1138.292106	-0.861498	
1138.293634	-0.868978	
1138.295387	-0.876378	
1138.296876	-0.881027	
1138.298647	-0.886647	
1138.300134	-0.889527	
1138.301900	-0.891336	
1138.303384	-0.893084	
1138.305181	-0.893156	
1138.306659	-0.892415	
1138.308432	-0.890284	
1138.309930	-0.887492	
1138.311676	-0.883202	
1138.313176	-0.877373	
1138.314915	-0.869655	
1138.316434	-0.862070	
1138.318164	-0.852925	
1138.319704	-0.843459	
1138.321417	-0.832329	
1138.322961	-0.820925	
1138.324654	-0.807877	
1138.326205	-0.795075	
1138.327871	-0.780593	
1138.329434	-0.766707	
1138.331089	-0.750900	
1138.332687	-0.735311	
1138.334322	-0.718255	
1138.335929	-0.702017	
1138.337556	-0.684151	
1138.339180	-0.667006	
1138.340799	-0.648742	
1138.342471	-0.630168	
1138.344050	-0.612161	
1138.345733	-0.593312	
1138.347302	-0.574895	
1138.348999	-0.555966	
1138.350566	-0.537923	
1138.352260	-0.519449	
1138.353823	-0.501672	
1138.355521	-0.483218	
1138.357084	-0.466078	
1138.358794	-0.447821	
1138.360308	-0.430862	
1138.362060	-0.414370	
1138.363556	-0.402620	
1138.365313	-0.384335	
1138.366799	-0.368480	
1138.368592	-0.350811	
1138.370086	-0.335093	
1138.371885	-0.318875	
1138.373366	-0.303942	
1138.375145	-0.288014	
1138.376626	-0.273923	
1138.378392	-0.258825	
1138.379887	-0.243964	
1138.381648	-0.228512	
1138.383161	-0.216000	
1138.384919	-0.200757	
1138.386436	-0.188184	
1138.388157	-0.174311	
1138.389685	-0.162262	
1138.391397	-0.148578	
1138.392937	-0.136461	
1138.394626	-0.123655	
1138.396187	-0.111908	
1138.397864	-0.098373	
1138.399443	-0.087033	
1138.401104	-0.074581	
1138.402693	-0.063536	
1138.404335	-0.051213	
1138.405947	-0.040615	
1138.407557	-0.028723	
1138.409187	-0.017194	
1138.410774	-0.005810	
1138.412429	0.007294	
1138.414024	0.019407	
1138.415672	0.031694	
1138.417248	0.044524	
1138.418926	0.058430	
1138.420501	0.070764	
1138.422216	0.083099	
1138.423764	0.094870	
1138.425477	0.108405	
1138.427014	0.120458	
1138.428749	0.134041	
1138.430254	0.146791	
1138.432007	0.160846	
1138.433498	0.174647	
1138.435271	0.188605	
1138.436752	0.202571	
1138.438530	0.217963	
1138.440012	0.231732	
1138.441782	0.246737	
1138.443265	0.261110	
1138.445012	0.276769	
1138.446524	0.292298	
1138.448259	0.308677	
1138.449787	0.324496	
1138.451518	0.341596	
1138.453049	0.356827	
1138.454769	0.373521	
1138.456310	0.389735	
1138.458016	0.406130	
1138.459584	0.417611	
1138.461275	0.434119	
1138.462852	0.450776	
1138.464535	0.470313	
1138.466113	0.487542	
1138.467789	0.504896	
1138.469369	0.523680	
1138.471007	0.541864	
1138.472606	0.559138	
1138.474218	0.576713	
1138.475855	0.593838	
1138.477466	0.610660	
1138.479143	0.629206	
1138.480748	0.647358	
1138.482382	0.663451	
1138.483875	0.679182	
1138.485433	0.695134	
1138.486945	0.711223	
1138.488492	0.725773	
1138.490021	0.739433	
1138.491519	0.753484	
1138.493105	0.767358	
1138.494609	0.780587	
1138.496197	0.793123	
1138.497694	0.804853	
1138.499268	0.816608	
1138.500793	0.826449	
1138.502420	0.837048	
1138.503912	0.846357	
1138.505469	0.853874	
1138.506980	0.861185	
1138.508530	0.867228	
1138.510043	0.872851	
1138.511534	0.876529	
1138.513104	0.880936	
1138.514644	0.884485	
1138.516238	0.886535	
1138.517740	0.888038	
1138.519406	0.888932	
1138.520907	0.888654	
1138.522550	0.886455	
1138.524073	0.882789	
1138.525703	0.880066	
1138.527199	0.876259	
1138.528834	0.870531	
1138.530335	0.865822	
1138.531984	0.858941	
1138.533476	0.852444	
1138.535111	0.843702	
1138.536591	0.836024	
1138.538182	0.825519	
1138.539707	0.814799	
1138.541240	0.805171	
1138.542848	0.793002	
1138.544346	0.782166	
1138.545993	0.768522	
1138.547510	0.756578	
1138.549162	0.741810	
1138.550654	0.729463	
1138.552289	0.715751	
1138.553769	0.701760	
1138.572423	0.532055	
1138.573903	0.517710	
1138.575549	0.499527	
1138.577024	0.482531	
1138.578667	0.463489	
1138.580150	0.446610	
1138.581795	0.429204	
1138.583282	0.415991	
1138.584867	0.405268	
1138.586429	0.390001	
1138.587966	0.376083	
1138.589563	0.361299	
1138.591055	0.348013	
1138.592713	0.334398	
1138.594200	0.320371	
1138.595846	0.305519	
1138.597345	0.293768	
1138.599034	0.281651	
1138.600514	0.270376	
1138.602228	0.258250	
1138.603708	0.248752	
1138.605436	0.236373	
1138.606933	0.227627	
1138.608673	0.216251	
1138.610158	0.206531	
1138.611851	0.195969	
1138.613336	0.188709	
1138.615030	0.180979	
1138.616526	0.173043	
1138.618181	0.165204	
1138.619716	0.156451	
1138.621329	0.149893	
1138.622891	0.142174	
1138.624474	0.138412	
1138.626073	0.131431	
1138.627639	0.124961	
1138.629257	0.118448	
1138.630800	0.114802	
1138.632460	0.109742	
1138.633950	0.105122	
1138.635661	0.099047	
1138.637158	0.096437	
1138.638888	0.090318	
1138.640361	0.087413	
1138.642061	0.082765	
1138.643539	0.079606	
1138.645232	0.074793	
1138.646715	0.072484	
1138.648423	0.070357	
1138.649910	0.066587	
1138.651578	0.064061	
1138.653101	0.061813	
1138.654722	0.058397	
1138.656278	0.055896	
1138.657887	0.053596	
1138.659452	0.051275	
1138.661016	0.049579	
1138.662624	0.046143	
1138.664170	0.045801	
1138.665821	0.042767	
1138.667318	0.041490	
1138.669022	0.040387	
1138.670494	0.038840	
1138.672231	0.036588	
1138.673706	0.035182	
1138.675407	0.033249	
1138.676899	0.031726	
1138.678583	0.030026	
1138.680065	0.029208	
1138.681760	0.028656	
1138.683241	0.027069	
1138.684918	0.025820	
1138.686445	0.024870	
1138.688183	0.024370	
1138.689706	0.022775	
1138.691417	0.021131	
1138.692966	0.020773	
1138.694665	0.019879	
1138.696228	0.018239	
1138.697926	0.017602	
1138.699492	0.017389	
1138.701146	0.016297	
1138.702736	0.015564	
1138.704399	0.015218	
1138.705996	0.013409	
1138.707639	0.012837	
1138.709258	0.012785	
1138.710889	0.011250	
1138.712524	0.011105	
1138.714132	0.010662	
1138.715816	0.008305	
1138.717410	0.007314	
1138.719064	0.006501	
1138.720670	0.006166	
1138.722331	0.005526	
1138.723920	0.005215	
1138.725619	0.004361	
1138.727172	0.003721	
1138.728877	0.003302	
1138.730417	0.003258	
1138.732128	0.002794	
1138.733679	0.002923	
1138.735371	0.002533	
1138.736892	0.002033	
1138.738646	0.001671	
1138.740124	0.001195	
1138.741890	0.000619	
1138.743376	0.000643	
1138.745157	-0.000424	
1138.746648	-0.000424	
1138.748390	0.000059	
1138.749889	-0.000046	
1138.751649	-0.000275	
1138.753155	-0.000916	
1138.754895	-0.000783	
1138.756413	-0.001113	
1138.758119	-0.001286	
1138.759645	-0.001282	
1138.761331	-0.001927	
1138.762877	-0.002072	
1138.764565	-0.001613	
1138.766133	-0.001500	
1138.767791	-0.001274	
1138.769371	-0.001596	
1138.771045	-0.000891	
1138.772638	-0.001516	
1138.774271	-0.001697	
1138.775880	-0.002040	
1138.777482	-0.002362	
1138.779138	-0.002128	
1138.780715	-0.001596	
1138.782381	-0.002056	
1138.783975	-0.001657	
1138.785623	-0.000867	
1138.787197	-0.000827	
1138.788890	-0.001278	
1138.790435	-0.001431	
1138.792139	-0.001669	
1138.793677	-0.001109	
1138.795385	-0.001842	
1138.796902	-0.001290	
1138.798637	-0.000658	
1138.800122	-0.000670	
1138.801892	-0.000368	
1138.803396	-0.000001	
1138.805173	-0.000340	
1138.806651	-0.000331	
1138.808437	-0.000460	
1138.809920	-0.000533	
1138.811679	-0.000698	
1138.813175	-0.000553	
1138.814924	0.000623	
1138.816439	-0.000042	
1138.818169	0.000389	
1138.819689	0.001002	
1138.821399	0.000982	
1138.822933	0.000809	
1138.824651	0.000680	
1138.826199	0.001046	
1138.827876	0.000796	
1138.829441	0.000627	
1138.831101	0.001473	
1138.832690	0.001272	
1138.834334	0.001799	
1138.835941	0.001513	
1138.837578	0.001900	
1138.839183	0.001235	
1138.840789	0.001779	
1138.842454	0.001481	
1138.844049	0.001534	
1138.845711	0.001131	
1138.847288	0.001723	
1138.848973	0.001787	
1138.850539	0.001912	
1138.852216	0.002698	
1138.853773	0.002794	
1138.855473	0.002371	
1138.857024	0.002057	
1138.858732	0.001993	
1138.860243	0.002057	
1138.861979	0.001525	
1138.863458	0.002392	
1138.865212	0.002452	
1138.866700	0.002859	
1138.868477	0.002758	
1138.869962	0.002831	
1138.871752	0.002807	
1138.873229	0.002444	
1138.874985	0.002835	
1138.876482	0.002601	
1138.878208	0.002464	
1138.879725	0.003129	
1138.881454	0.003060	
1138.882987	0.003064	
1138.884704	0.003866	
1138.886253	0.003423	
1138.887936	0.003431	
1138.889491	0.002980	
1138.891148	0.003556	
1138.892714	0.003395	
1138.894356	0.003274	
1138.895951	0.002968	
1138.897579	0.003765	
1138.899206	0.003769	
1138.900825	0.004083	
1138.902458	0.003951	
1138.904070	0.004337	
1138.905718	0.004031	
1138.907313	0.004535	
1138.908989	0.004140	
1138.910564	0.004003	
1138.912258	0.003818	
1138.913826	0.004353	
1138.915508	0.004873	
1138.917049	0.004676	
1138.918739	0.005058	
1138.920260	0.005119	
1138.921993	0.004954	
1138.923476	0.005171	
1138.925254	0.005087	
1138.926740	0.005022	
1138.928506	0.005215	
1138.929996	0.005107	
1138.931775	0.005671	
1138.933262	0.005888	
1138.935020	0.005747	
1138.936519	0.005755	
1138.938277	0.005993	
1138.939782	0.005783	
1138.941503	0.005864	
1138.943033	0.006057	
1138.944734	0.005800	
1138.946282	0.006319	
1138.947977	0.007165	
1138.949541	0.006887	
1138.951221	0.007266	
1138.952779	0.007250	
1138.954441	0.007721	
1138.956012	0.007306	
1138.957668	0.006915	
1138.959263	0.007483	
1138.960889	0.007250	
1138.962515	0.007044	
1138.964127	0.007834	
1138.965782	0.007548	
1138.967376	0.008200	
1138.969015	0.008269	
1138.970611	0.008704	
1138.972296	0.008349	
1138.973854	0.008366	
1138.975550	0.008080	
1138.977102	0.008329	
1138.978820	0.007918	
1138.980360	0.008764	
1138.982042	0.008438	
1138.983577	0.008998	
1138.985296	0.008921	
1138.986791	0.009131	
1138.988572	0.009167	
1138.990054	0.008712	
1138.991820	0.008817	
1138.993306	0.008914	
1138.995073	0.008922	
1138.996554	0.008913	
1138.998322	0.009187	
1138.999832	0.009006	
1139.001605	0.009530	
1139.003108	0.010404	
1139.004832	0.009739	
1139.006352	0.009610	
1139.008039	0.009107	
1139.009585	0.009675	
1139.011266	0.009598	
1139.012820	0.009502	
1139.014498	0.009937	
1139.016085	0.009651	
1139.017761	0.010142	
1139.019330	0.009985	
1139.020972	0.010295	
1139.022563	0.009973	
1139.024196	0.009864	
1139.025807	0.009945	
1139.027398	0.010033	
1139.029073	0.009240	
1139.030675	0.010206	
1139.032330	0.009816	
1139.033910	0.009771	
1139.035568	0.010142	
1139.037125	0.010646	
1139.038829	0.010206	
1139.040364	0.010041	
1139.042078	0.009981	
1139.043601	0.009844	
1139.045322	0.009836	
1139.046821	0.010162	
1139.048593	0.009977	
1139.050085	0.010384	
1139.051871	0.010710	
1139.053351	0.010795	
1139.055127	0.010275	
1139.056605	0.010166	
1139.058363	0.010440	
1139.059861	0.010070	
1139.061615	0.010013	
1139.063124	0.010484	
1139.064835	0.010525	
1139.066365	0.010799	
1139.068092	0.010686	
1139.069619	0.011145	
1139.071313	0.011302	
1139.072858	0.010368	
1139.074537	0.010509	
1139.076091	0.010799	
1139.077777	0.010702	
1139.079363	0.010396	
1139.081003	0.011073	
1139.082619	0.011061	
1139.084260	0.011286	
1139.085849	0.010742	
1139.087459	0.011367	
1139.089080	0.011169	
1139.090678	0.010911	
1139.092354	0.010767	
1139.093926	0.010911	
1139.095597	0.010533	
1139.097180	0.010791	
1139.098856	0.010738	
1139.100403	0.010702	
1139.102086	0.010807	
1139.103643	0.010771	
1139.105359	0.010464	
1139.106875	0.010086	
1139.108625	0.009771	
1139.110105	0.009884	
1139.111872	0.009606	
1139.113356	0.009373	
1139.115119	0.009328	
1139.116606	0.009284	
1139.118376	0.008740	
1139.119854	0.009131	
1139.121604	0.008378	
1139.123117	0.007947	
1139.124826	0.007238	
1139.126341	0.007177	
1139.128075	0.006299	
1139.129605	0.005848	
1139.131311	0.005900	
1139.132873	0.004962	
1139.134572	0.004905	
1139.136123	0.004531	
1139.137798	0.003955	
1139.139376	0.002645	
1139.141041	0.002142	
1139.142623	0.001405	
1139.144247	0.000124	
1139.145854	-0.001206	
1139.147465	-0.001484	
1139.149122	-0.002301	
1139.150619	-0.003220	
1139.152174	-0.003925	
1139.153662	-0.004972	
1139.155200	-0.006322	
1139.156710	-0.007595	
1139.158247	-0.008811	
1139.159814	-0.009448	
1139.161304	-0.011353	
1139.162902	-0.011917	
1139.164392	-0.013105	
1139.166033	-0.014709	
1139.167522	-0.015953	
1139.169158	-0.017315	
1139.170684	-0.018693	
1139.172315	-0.020687	
1139.173797	-0.022254	
1139.175360	-0.023946	
1139.176863	-0.026068	
1139.178419	-0.028095	
1139.179943	-0.029919	
1139.181526	-0.031990	
1139.183065	-0.034145	
1139.184624	-0.035640	
1139.186179	-0.037726	
1139.187671	-0.039962	
1139.189310	-0.042726	
1139.190817	-0.044986	
1139.192449	-0.047821	
1139.193974	-0.050907	
1139.195586	-0.053888	
1139.197072	-0.056200	
1139.198716	-0.059197	
1139.200212	-0.062231	
1139.201841	-0.065244	
1139.203342	-0.068052	
1139.204980	-0.071899	
1139.206472	-0.075742	
1139.208059	-0.079637	
1139.209589	-0.083226	
1139.211106	-0.087363	
1139.212730	-0.091585	
1139.214225	-0.095577	
1139.215859	-0.100053	
1139.217386	-0.104999	
1139.219016	-0.109805	
1139.220512	-0.114164	
1139.222170	-0.120283	
1139.223644	-0.125310	
1139.225285	-0.131079	
1139.226772	-0.137021	
1139.228403	-0.143583	
1139.229889	-0.149702	
1139.231511	-0.156240	
1139.233042	-0.162761	
1139.234596	-0.170250	
1139.236215	-0.177485	
1139.237696	-0.184925	
1139.239350	-0.193888	
1139.240840	-0.202199	
1139.242470	-0.211065	
1139.244003	-0.219972	
1139.245643	-0.230159	
1139.247119	-0.239501	
1139.248756	-0.249209	
1139.250234	-0.259727	
1139.251871	-0.270596	
1139.253366	-0.281218	
1139.254978	-0.293247	
1139.256498	-0.306190	
1139.258081	-0.318637	
1139.259621	-0.331339	
1139.261159	-0.345063	
1139.262757	-0.358667	
1139.264332	-0.372371	
1139.265941	-0.387844	
1139.267500	-0.402559	
1139.269130	-0.413778	
1139.270644	-0.427132	
1139.272330	-0.444736	
1139.273815	-0.460382	
1139.275541	-0.478703	
1139.277010	-0.495452	
1139.278725	-0.514361	
1139.280211	-0.530966	
1139.281918	-0.549710	
1139.283401	-0.566987	
1139.285104	-0.586734	
1139.286596	-0.603931	
1139.288280	-0.623436	
1139.289781	-0.641620	
1139.291431	-0.660501	
1139.292961	-0.678544	
1139.294595	-0.696832	
1139.296163	-0.715145	
1139.297772	-0.731443	
1139.299346	-0.748499	
1139.300926	-0.764709	
1139.302532	-0.780621	
1139.304084	-0.794483	
1139.305767	-0.810459	
1139.307252	-0.823503	
1139.308968	-0.837364	
1139.310447	-0.849179	
1139.312179	-0.860716	
1139.313651	-0.869639	
1139.315354	-0.878884	
1139.316835	-0.886171	
1139.318540	-0.892947	
1139.320027	-0.897511	
1139.321738	-0.902309	
1139.323238	-0.905717	
1139.324913	-0.907642	
1139.326411	-0.908323	
1139.328074	-0.907618	
1139.329590	-0.906216	
1139.331216	-0.902466	
1139.332765	-0.899126	
1139.334355	-0.893229	
1139.335968	-0.887219	
1139.337511	-0.879798	
1139.339132	-0.871923	
1139.340653	-0.862340	
1139.342323	-0.851902	
1139.343799	-0.841288	
1139.345537	-0.829461	
1139.347131	-0.816078	
1139.348803	-0.802249	
1139.350355	-0.787751	
1139.352069	-0.772842	
1139.353607	-0.757656	
1139.355335	-0.741696	
1139.356852	-0.726166	
1139.358588	-0.709002	
1139.360074	-0.692800	
1139.361835	-0.675873	
1139.363322	-0.659075	
1139.365098	-0.640428	
1139.366593	-0.623686	
1139.368395	-0.604938	
1139.369873	-0.588180	
1139.371640	-0.570246	
1139.373133	-0.554056	
1139.374882	-0.536731	
1139.376389	-0.520347	
1139.378136	-0.502393	
1139.379666	-0.486107	
1139.381391	-0.467999	
1139.382929	-0.452841	
1139.384650	-0.435024	
1139.386193	-0.419756	
1139.387910	-0.407969	
1139.389461	-0.395079	
1139.391136	-0.378752	
1139.392706	-0.364165	
1139.394388	-0.349200	
1139.395961	-0.334174	
1139.397606	-0.318996	
1139.399191	-0.304719	
1139.400812	-0.289831	
1139.402437	-0.275450	
1139.404036	-0.261238	
1139.405692	-0.246970	
1139.407275	-0.233177	
1139.408950	-0.219674	
1139.410533	-0.206203	
1139.412206	-0.192225	
1139.413777	-0.178641	
1139.415484	-0.164957	
1139.417045	-0.152288	
1139.418756	-0.138704	
1139.420297	-0.125983	
1139.422012	-0.112726	
1139.423537	-0.100480	
1139.425276	-0.087085	
1139.426762	-0.074972	
1139.428518	-0.061626	
1139.430010	-0.049098	
1139.431792	-0.035567	
1139.433276	-0.023313	
1139.435052	-0.009557	
1139.436531	0.003967	
1139.438291	0.017933	
1139.439795	0.029120	
1139.441535	0.044093	
1139.443048	0.057443	
1139.444810	0.071578	
1139.446331	0.084191	
1139.448056	0.098060	
1139.449588	0.111120	
1139.451289	0.125348	
1139.452836	0.138323	
1139.454535	0.152805	
1139.456098	0.165692	
1139.457767	0.179573	
1139.459356	0.193447	
1139.461032	0.207856	
1139.462632	0.222012	
1139.464287	0.237223	
1139.465881	0.251177	
1139.467516	0.265739	
1139.469132	0.280410	
1139.470753	0.294920	
1139.472397	0.309398	
1139.474017	0.324194	
1139.475686	0.340557	
1139.477285	0.356026	
1139.478943	0.370544	
1139.480527	0.385815	
1139.482206	0.402211	
1139.483752	0.414702	
1139.485475	0.427726	
1139.487015	0.443054	
1139.488702	0.459968	
1139.490239	0.474982	
1139.491953	0.491035	
1139.493449	0.506439	
1139.495249	0.524087	
1139.496726	0.539794	
1139.498523	0.557555	
1139.500006	0.573334	
1139.501789	0.590780	
1139.503272	0.605923	
1139.505045	0.623402	
1139.506537	0.638129	
1139.508308	0.655934	
1139.509797	0.671588	
1139.511551	0.687935	
1139.513067	0.703219	
1139.514790	0.719827	
1139.516311	0.734503	
1139.518028	0.750044	
1139.519562	0.763837	
1139.521260	0.778166	
1139.522825	0.791338	
1139.524522	0.805067	
1139.526080	0.817264	
1139.527772	0.829466	
1139.529341	0.840625	
1139.530998	0.851936	
1139.532589	0.862148	
1139.534192	0.871006	
